n,tiempo[ms]
1,0
101,97.2
201,788.4
301,2997.2
401,6214.5
501,10482.3
601,18322.7
701,31749
801,44672.8
901,62685.6
1001,81420.3
1101,110541
1201,140425
1301,181920
1401,229499
1501,293400
1601,365815
1701,451862
1801,543151
1901,624604
